 No.  TimeTiltAng Theta(L) Theta(R)  Mean    Dev.  Height  Width   Area   Volume  Messages
  1  0.000    0.0   57.36   55.69   56.53   0.83   0.713   2.729    7.27    2.19    
  2  0.276    0.0   57.19   55.60   56.39   0.79   0.711   2.731    7.27    2.18    
  3  0.452    0.0   56.88   55.64   56.26   0.62   0.710   2.733    7.27    2.18    
  4  0.702    0.0   56.75   55.44   56.10   0.66   0.709   2.735    7.28    2.18    
  5  0.951    0.0   56.76   55.34   56.05   0.71   0.707   2.736    7.27    2.17    
  6  1.200    0.0   56.59   55.22   55.91   0.69   0.705   2.738    7.28    2.17    
  7  1.446    0.0   56.48   55.04   55.76   0.72   0.704   2.740    7.28    2.17    
  8  1.696    0.0   56.38   54.99   55.69   0.70   0.702   2.741    7.27    2.17    
  9  1.954    0.0   56.29   54.88   55.59   0.71   0.701   2.742    7.28    2.16    
 10  2.200    0.0   56.19   54.82   55.50   0.69   0.701   2.745    7.28    2.16    
 11  2.448    0.0   56.08   54.65   55.36   0.72   0.700   2.748    7.29    2.16    
 12  2.697    0.0   55.80   54.38   55.09   0.71   0.698   2.753    7.30    2.16    
 13  2.948    0.0   55.62   54.33   54.98   0.65   0.697   2.755    7.30    2.16    
 14  3.196    0.0   55.56   54.36   54.96   0.60   0.695   2.755    7.30    2.16    
 15  3.448    0.0   55.52   54.38   54.95   0.57   0.694   2.756    7.29    2.15    
 16  3.695    0.0   55.48   54.27   54.87   0.60   0.693   2.757    7.29    2.15    
 17  3.943    0.0   55.37   54.11   54.74   0.63   0.691   2.757    7.29    2.15    
 18  4.200    0.0   55.41   54.08   54.75   0.66   0.690   2.758    7.29    2.14    
 19  4.446    0.0   55.27   53.88   54.58   0.69   0.689   2.761    7.29    2.14    
 20  4.691    0.0   55.18   53.65   54.42   0.77   0.688   2.763    7.30    2.14    
 21  4.944    0.0   55.07   53.56   54.32   0.76   0.687   2.766    7.30    2.14    
 22  5.194    0.0   54.74   53.44   54.09   0.65   0.685   2.771    7.31    2.14    
 23  5.444    0.0   54.74   53.17   53.96   0.78   0.684   2.773    7.32    2.14    
 24  5.693    0.0   54.63   52.66   53.65   0.99   0.682   2.778    7.33    2.14    
 25  5.943    0.0   54.55   52.49   53.52   1.03   0.681   2.780    7.32    2.13    
 26  6.206    0.0   54.43   52.43   53.43   1.00   0.680   2.782    7.33    2.13    
 27  6.443    0.0   54.31   52.39   53.35   0.96   0.679   2.785    7.33    2.13    
 28  6.708    0.0   54.16   52.23   53.20   0.96   0.678   2.788    7.35    2.14    
 29  6.946    0.0   54.13   52.22   53.17   0.95   0.677   2.790    7.35    2.14    
 30  7.191    0.0   54.09   52.13   53.11   0.98   0.675   2.790    7.35    2.13    
 31  7.442    0.0   54.17   52.03   53.10   1.07   0.673   2.791    7.34    2.13    
 32  7.692    0.0   54.18   51.94   53.06   1.12   0.672   2.791    7.34    2.13    
 33  7.956    0.0   54.16   51.63   52.90   1.26   0.671   2.794    7.35    2.13    
 34  8.209    0.0   54.16   51.48   52.82   1.34   0.670   2.795    7.35    2.12    
 35  8.450    0.0   54.17   51.41   52.79   1.38   0.669   2.795    7.34    2.12    
 36  8.709    0.0   54.12   51.35   52.74   1.38   0.668   2.796    7.33    2.11    
 37  8.958    0.0   54.09   51.18   52.63   1.46   0.667   2.797    7.33    2.11    
 38  9.208    0.0   53.33   51.14   52.24   1.10   0.666   2.803    7.36    2.11    
 39  9.448    0.0   53.21   50.90   52.05   1.15   0.664   2.805    7.36    2.11    
 40  9.707    0.0   53.16   50.79   51.98   1.18   0.664   2.806    7.36    2.11    
 41  9.957    0.0   52.89   50.75   51.82   1.07   0.662   2.809    7.36    2.11    
 42  10.20    0.0   52.53   50.70   51.61   0.92   0.660   2.814    7.38    2.11    
 43  10.45    0.0   52.32   50.61   51.46   0.86   0.659   2.816    7.38    2.10    
 44  10.70    0.0   52.22   50.22   51.22   1.00   0.658   2.820    7.39    2.10    
 45  10.95    0.0   52.20   49.96   51.08   1.12   0.657   2.824    7.39    2.09    
 46  11.20    0.0   52.14   49.87   51.00   1.13   0.656   2.825    7.39    2.09    
 47  11.45    0.0   52.07   49.85   50.96   1.11   0.655   2.826    7.40    2.10    
 48  11.70    0.0   52.02   49.79   50.90   1.11   0.654   2.828    7.41    2.10    
 49  11.94    0.0   51.93   49.78   50.85   1.08   0.652   2.828    7.41    2.10    
 50  12.20    0.0   51.58   49.69   50.64   0.95   0.651   2.833    7.42    2.09    
 51  12.45    0.0   51.55   49.62   50.59   0.96   0.651   2.835    7.42    2.10    
 52  12.69    0.0   51.46   49.49   50.47   0.98   0.650   2.838    7.43    2.10    
 53  12.94    0.0   51.50   49.29   50.39   1.10   0.649   2.841    7.44    2.10    
 54  13.19    0.0   51.59   48.96   50.27   1.32   0.648   2.845    7.45    2.10    
 55  13.44    0.0   51.59   48.91   50.25   1.34   0.647   2.847    7.45    2.09    
 56  13.70    0.0   51.62   48.77   50.20   1.43   0.646   2.848    7.45    2.09    
 57  13.94    0.0   51.69   48.68   50.19   1.51   0.645   2.849    7.45    2.09    
 58  14.20    0.0   51.46   48.60   50.03   1.43   0.644   2.852    7.46    2.09    
 59  14.45    0.0   51.43   48.59   50.01   1.42   0.643   2.853    7.47    2.09    
 60  14.69    0.0   51.42   48.38   49.90   1.52   0.642   2.856    7.48    2.09    
