 No.  TimeTiltAng Theta(L) Theta(R)  Mean    Dev.  Height  Width   Area   Volume  Messages
  1  0.000    0.0   40.95   41.72   41.34   0.38   0.546   2.948    7.53    1.84    
  2  0.267    0.0   40.74   42.08   41.41   0.67   0.543   2.950    7.52    1.83    
  3  0.443    0.0   40.64   41.77   41.21   0.57   0.543   2.953    7.56    1.84    
  4  0.708    0.0   40.53   41.64   41.09   0.56   0.541   2.956    7.56    1.83    
  5  0.944    0.0   40.30   41.31   40.80   0.50   0.540   2.961    7.56    1.83    
  6  1.192    0.0   40.10   41.19   40.64   0.54   0.538   2.965    7.56    1.82    
  7  1.441    0.0   39.97   41.07   40.52   0.55   0.538   2.968    7.59    1.83    
  8  1.692    0.0   39.88   40.98   40.43   0.55   0.536   2.972    7.60    1.83    
  9  1.942    0.0   39.81   40.97   40.39   0.58   0.535   2.974    7.59    1.83    
 10  2.192    0.0   39.70   40.98   40.34   0.64   0.534   2.975    7.59    1.82    
 11  2.458    0.0   39.62   40.85   40.24   0.62   0.533   2.976    7.59    1.82    
 12  2.707    0.0   39.55   40.81   40.18   0.63   0.533   2.977    7.59    1.82    
 13  2.958    0.0   39.48   40.73   40.10   0.63   0.532   2.978    7.59    1.81    
 14  3.208    0.0   39.42   40.66   40.04   0.62   0.532   2.979    7.59    1.81    
 15  3.449    0.0   39.38   40.49   39.93   0.55   0.531   2.982    7.62    1.82    
 16  3.698    0.0   39.30   40.42   39.86   0.56   0.530   2.984    7.62    1.82    
 17  3.957    0.0   39.15   40.21   39.68   0.53   0.529   2.990    7.63    1.81    
 18  4.206    0.0   39.03   39.81   39.42   0.39   0.528   2.995    7.66    1.82    
 19  4.447    0.0   38.91   39.70   39.30   0.39   0.527   2.998    7.67    1.82    
 20  4.705    0.0   38.83   39.59   39.21   0.38   0.526   2.999    7.67    1.82    
 21  4.946    0.0   38.83   39.56   39.19   0.37   0.525   3.000    7.67    1.81    
 22  5.196    0.0   38.80   39.47   39.13   0.33   0.524   3.001    7.66    1.81    
 23  5.446    0.0   38.70   39.28   38.99   0.29   0.524   3.004    7.71    1.82    
 24  5.704    0.0   38.67   39.35   39.01   0.34   0.523   3.003    7.66    1.81    
 25  5.953    0.0   38.66   39.09   38.87   0.21   0.522   3.005    7.71    1.81    
 26  6.199    0.0   38.55   39.03   38.79   0.24   0.522   3.007    7.71    1.81    
 27  6.453    0.0   38.52   38.90   38.71   0.19   0.521   3.009    7.71    1.81    
 28  6.702    0.0   38.51   38.83   38.67   0.16   0.521   3.011    7.71    1.81    
 29  6.952    0.0   38.15   38.77   38.46   0.31   0.521   3.014    7.75    1.81    
 30  7.193    0.0   38.15   38.74   38.44   0.29   0.520   3.014    7.75    1.81    
 31  7.444    0.0   38.11   38.68   38.39   0.29   0.519   3.015    7.75    1.80    
 32  7.701    0.0   38.04   38.54   38.29   0.25   0.518   3.016    7.74    1.80    
 33  7.950    0.0   38.23   38.54   38.38   0.15   0.518   3.015    7.70    1.79    
 34  8.191    0.0   37.94   38.47   38.21   0.26   0.517   3.017    7.74    1.79    
 35  8.460    0.0   37.74   38.35   38.05   0.31   0.515   3.020    7.73    1.79    
 36  8.695    0.0   37.67   38.36   38.02   0.34   0.515   3.021    7.73    1.79    
 37  8.949    0.0   37.65   38.18   37.92   0.27   0.514   3.023    7.76    1.80    
 38  9.198    0.0   37.63   38.15   37.89   0.26   0.513   3.024    7.76    1.80    
 39  9.460    0.0   37.47   38.09   37.78   0.31   0.513   3.024    7.76    1.79    
 40  9.709    0.0   37.49   37.99   37.74   0.25   0.512   3.026    7.76    1.79    
 41  9.947    0.0   37.35   37.97   37.66   0.31   0.512   3.028    7.76    1.79    
 42  10.20    0.0   37.33   38.01   37.67   0.34   0.511   3.030    7.76    1.79    
 43  10.46    0.0   37.29   37.94   37.62   0.32   0.511   3.031    7.76    1.79    
 44  10.69    0.0   37.22   37.89   37.55   0.34   0.510   3.032    7.76    1.79    
 45  10.96    0.0   37.22   37.93   37.58   0.35   0.510   3.032    7.76    1.79    
 46  11.21    0.0   37.17   37.97   37.57   0.40   0.510   3.032    7.76    1.78    
 47  11.45    0.0   37.12   37.92   37.52   0.40   0.509   3.034    7.75    1.78    
 48  11.70    0.0   37.06   37.90   37.48   0.42   0.509   3.035    7.76    1.78    
 49  11.95    0.0   36.99   37.61   37.30   0.31   0.507   3.035    7.75    1.77    
 50  12.20    0.0   36.93   37.47   37.20   0.27   0.506   3.036    7.75    1.77    
 51  12.45    0.0   36.95   37.47   37.21   0.26   0.505   3.036    7.75    1.77    
 52  12.69    0.0   36.91   37.35   37.13   0.22   0.505   3.037    7.75    1.76    
 53  12.94    0.0   36.84   37.33   37.09   0.24   0.504   3.037    7.74    1.76    
 54  13.19    0.0   36.87   37.27   37.07   0.20   0.503   3.038    7.74    1.76    
 55  13.46    0.0   36.65   37.22   36.93   0.28   0.501   3.038    7.73    1.75    
 56  13.70    0.0   36.66   36.90   36.78   0.12   0.501   3.040    7.78    1.76    
 57  13.95    0.0   36.61   37.01   36.81   0.20   0.501   3.039    7.77    1.76    
 58  14.19    0.0   36.52   36.95   36.74   0.21   0.500   3.040    7.77    1.76    
 59  14.45    0.0   36.50   36.78   36.64   0.14   0.499   3.040    7.77    1.75    
 60  14.70    0.0   36.46   36.74   36.60   0.14   0.498   3.040    7.77    1.75    
