 No.  TimeTiltAng Theta(L) Theta(R)  Mean    Dev.  Height  Width   Area   Volume  Messages
  1  0.000    0.0   51.82   58.78   55.30   3.48   0.730   2.926    7.98    2.29    
  2  0.279    0.0   49.35   61.82   55.58   6.24   0.730   2.921    7.85    2.21    
  3  0.458    0.0   50.19   59.59   54.89   4.70   0.730   2.923    7.97    2.35    
  4  0.706    0.0   50.74   60.03   55.39   4.64   0.729   2.920    8.00    2.35    
  5  0.956    0.0   50.24   60.26   55.25   5.01   0.730   2.924    7.95    2.29    
  6  1.205    0.0   50.81   59.99   55.40   4.59   0.729   2.921    8.00    2.35    
  7  1.456    0.0   50.23   60.02   55.13   4.89   0.729   2.925    7.96    2.29    
  8  1.700    0.0   50.14   59.96   55.05   4.91   0.729   2.921    7.97    2.35    
  9  1.954    0.0   49.64   60.07   54.86   5.21   0.729   2.924    7.93    2.28    
 10  2.203    0.0   49.80   60.65   55.22   5.43   0.730   2.922    8.01    2.34    
 11  2.453    0.0   49.27   60.32   54.80   5.52   0.729   2.927    7.85    2.21    
 12  2.702    0.0   49.73   59.96   54.84   5.12   0.729   2.925    7.94    2.28    
 13  2.954    0.0   50.27   59.77   55.02   4.75   0.729   2.925    7.95    2.28    
 14  3.204    0.0   50.33   59.75   55.04   4.71   0.729   2.928    7.89    2.21    
 15  3.454    0.0   49.19   59.58   54.39   5.20   0.728   2.928    7.83    2.20    
 16  3.704    0.0   51.64   60.16   55.90   4.26   0.728   2.922    8.01    2.29    
 17  3.951    0.0   51.67   60.29   55.98   4.31   0.729   2.920    7.97    2.28    
 18  4.202    0.0   51.91   60.59   56.25   4.34   0.728   2.921    7.89    2.20    
 19  4.453    0.0   50.12   59.37   54.74   4.62   0.728   2.923    7.96    2.34    
 20  4.701    0.0   49.23   60.31   54.77   5.54   0.728   2.926    7.84    2.20    
 21  4.952    0.0   49.66   63.09   56.38   6.72   0.727   2.912    7.93    2.28    
 22  5.200    0.0   49.59   58.80   54.19   4.60   0.727   2.927    7.91    2.26    
 23  5.451    0.0   49.98   59.17   54.57   4.60   0.727   2.929    7.87    2.20    
 24  5.699    0.0   49.32   60.10   54.71   5.39   0.727   2.925    7.83    2.19    
 25  5.948    0.0   49.73   58.37   54.05   4.32   0.727   2.932    7.84    2.19    
 26  6.198    0.0   49.72   59.76   54.74   5.02   0.727   2.926    7.86    2.18    
 27  6.448    0.0   49.76   59.47   54.61   4.85   0.726   2.927    7.83    2.18    
 28  6.699    0.0   49.93   60.38   55.15   5.23   0.726   2.918    7.95    2.33    
 29  6.946    0.0   49.50   58.93   54.22   4.71   0.726   2.928    7.90    2.26    
 30  7.192    0.0   49.61   59.79   54.70   5.09   0.727   2.923    7.92    2.27    
 31  7.448    0.0   49.11   59.67   54.39   5.28   0.726   2.928    7.83    2.20    
 32  7.697    0.0   50.71   59.98   55.34   4.63   0.726   2.916    8.03    2.39    
 33  7.945    0.0   51.98   59.42   55.70   3.72   0.726   2.922    7.98    2.27    
 34  8.194    0.0   50.56   59.73   55.14   4.58   0.726   2.926    7.88    2.20    
 35  8.446    0.0   52.37   59.16   55.76   3.39   0.726   2.924    7.90    2.20    
 36  8.695    0.0   49.77   59.43   54.60   4.83   0.726   2.929    7.86    2.19    
 37  8.944    0.0   51.98   60.48   56.23   4.25   0.725   2.917    7.97    2.27    
 38  9.193    0.0   49.28   60.26   54.77   5.49   0.725   2.926    7.85    2.20    
 39  9.443    0.0   49.81   59.28   54.54   4.73   0.725   2.930    7.85    2.19    
 40  9.694    0.0   55.44   60.06   57.75   2.31   0.725   2.912    7.96    2.21    
 41  9.958    0.0   54.84   59.18   57.01   2.17   0.725   2.915    8.07    2.28    
 42  10.19    0.0   52.50   58.97   55.74   3.23   0.725   2.925    7.91    2.20    
 43  10.44    0.0   63.78   58.93   61.36   2.42   0.725   2.898    8.10    2.22    
 44  10.69    0.0   51.95   61.32   56.63   4.69   0.725   2.914    7.97    2.27    
 45  10.94    0.0   49.69   62.09   55.89   6.20   0.725   2.921    7.77    2.10    
 46  11.21    0.0   49.09   59.06   54.07   4.99   0.725   2.932    7.83    2.19    
 47  11.46    0.0   49.73   61.74   55.74   6.00   0.724   2.913    7.94    2.33    
 48  11.69    0.0   49.86   59.64   54.75   4.89   0.724   2.925    7.86    2.18    
 49  11.96    0.0   49.69   60.00   54.85   5.16   0.724   2.924    7.84    2.17    
 50  12.21    0.0   49.41   60.30   54.85   5.44   0.724   2.922    7.89    2.25    
 51  12.45    0.0   49.35   60.24   54.80   5.44   0.724   2.922    7.89    2.25    
 52  12.69    0.0   49.18   60.46   54.82   5.64   0.724   2.922    8.00    2.33    
 53  12.96    0.0   51.84   62.51   57.17   5.33   0.723   2.912    7.89    2.19    
 54  13.20    0.0   57.46   59.84   58.65   1.19   0.724   2.910    7.88    2.12    
 55  13.45    0.0   52.21   59.31   55.76   3.55   0.723   2.924    7.89    2.19    
 56  13.70    0.0   51.83   58.51   55.17   3.34   0.723   2.928    8.01    2.27    
 57  13.95    0.0   50.50   59.76   55.13   4.63   0.723   2.917    8.01    2.38    
 58  14.20    0.0   49.95   59.04   54.50   4.54   0.723   2.927    7.92    2.26    
 59  14.45    0.0   55.34   61.19   58.26   2.92   0.723   2.907    7.95    2.20    
 60  14.70    0.0   56.02   60.34   58.18   2.16   0.723   2.908    7.95    2.20    
