 No.  TimeTiltAng Theta(L) Theta(R)  Mean    Dev.  Height  Width   Area   Volume  Messages
  1  0.000    0.0   31.45   36.75   34.10   2.65   0.545   3.415    9.55    2.07    
  2  0.268    0.0   31.36   36.34   33.85   2.49   0.544   3.419    9.56    2.07    
  3  0.445    0.0   31.39   35.98   33.69   2.29   0.544   3.422    9.63    2.14    
  4  0.696    0.0   31.43   36.17   33.80   2.37   0.543   3.423    9.64    2.14    
  5  0.945    0.0   31.36   35.82   33.59   2.23   0.543   3.427    9.64    2.14    
  6  1.194    0.0   31.34   36.04   33.69   2.35   0.542   3.427    9.64    2.14    
  7  1.446    0.0   31.29   35.88   33.59   2.30   0.541   3.429    9.64    2.14    
  8  1.690    0.0   31.33   35.50   33.42   2.08   0.541   3.433    9.64    2.14    
  9  1.943    0.0   31.15   35.81   33.48   2.33   0.541   3.434    9.68    2.11    
 10  2.195    0.0   31.13   35.71   33.42   2.29   0.540   3.434    9.68    2.11    
 11  2.443    0.0   31.04   35.34   33.19   2.15   0.540   3.440    9.76    2.16    
 12  2.694    0.0   31.00   35.55   33.27   2.28   0.539   3.441    9.76    2.17    
 13  2.954    0.0   31.00   35.91   33.46   2.46   0.539   3.440    9.76    2.17    
 14  3.204    0.0   30.95   35.59   33.27   2.32   0.538   3.443    9.76    2.16    
 15  3.440    0.0   30.92   35.54   33.23   2.31   0.538   3.445    9.76    2.16    
 16  3.690    0.0   30.90   35.70   33.30   2.40   0.537   3.445    9.76    2.17    
 17  3.945    0.0   30.84   35.57   33.21   2.37   0.536   3.447    9.76    2.17    
 18  4.203    0.0   30.83   35.72   33.27   2.45   0.535   3.447    9.76    2.16    
 19  4.441    0.0   30.79   36.99   33.89   3.10   0.535   3.443    9.76    2.17    
 20  4.690    0.0   30.72   38.06   34.39   3.67   0.534   3.439    9.78    2.14    
 21  4.951    0.0   30.71   39.34   35.03   4.32   0.534   3.435    9.78    2.14    
 22  5.193    0.0   30.71   39.84   35.27   4.57   0.533   3.434    9.78    2.14    
 23  5.450    0.0   30.70   39.88   35.29   4.59   0.533   3.435    9.78    2.14    
 24  5.701    0.0   30.64   43.59   37.11   6.47   0.532   3.423    9.79    2.13    
 25  5.949    0.0   30.51   36.43   33.47   2.96   0.532   3.453    9.78    2.13    
 26  6.199    0.0   30.49   36.74   33.62   3.13   0.531   3.452    9.78    2.13    
 27  6.449    0.0   30.42   36.18   33.30   2.88   0.531   3.456    9.78    2.13    
 28  6.699    0.0   30.41   35.88   33.14   2.74   0.530   3.459    9.78    2.13    
 29  6.947    0.0   30.51   35.02   32.77   2.25   0.530   3.465    9.85    2.18    
 30  7.197    0.0   30.54   34.51   32.53   1.99   0.530   3.470    9.85    2.18    
 31  7.448    0.0   30.37   34.69   32.53   2.16   0.529   3.473    9.88    2.15    
 32  7.698    0.0   30.23   34.73   32.48   2.25   0.529   3.474    9.88    2.15    
 33  7.946    0.0   30.27   34.64   32.46   2.19   0.529   3.476    9.88    2.15    
 34  8.196    0.0   30.35   34.37   32.36   2.01   0.528   3.478    9.89    2.16    
 35  8.449    0.0   30.38   34.51   32.45   2.07   0.527   3.478    9.89    2.16    
 36  8.695    0.0   30.33   34.43   32.38   2.05   0.527   3.480    9.89    2.16    
 37  8.947    0.0   30.27   34.27   32.27   2.00   0.526   3.482    9.89    2.16    
 38  9.195    0.0   30.20   34.11   32.16   1.96   0.526   3.484    9.89    2.16    
 39  9.446    0.0   30.19   33.89   32.04   1.85   0.525   3.486    9.89    2.16    
 40  9.695    0.0   30.05   33.80   31.93   1.88   0.524   3.488    9.91    2.12    
 41  9.943    0.0   30.08   51.60   40.84  10.76   0.524   3.449   10.24    2.27    
 42  10.19    0.0   29.91   33.48   31.70   1.79   0.523   3.495    9.97    2.17    
 43  10.44    0.0   29.92   33.41   31.66   1.75   0.523   3.496    9.96    2.17    
 44  10.69    0.0   29.93   44.34   37.13   7.21   0.523   3.469   10.24    2.27    
 45  10.94    0.0   29.80   42.29   36.05   6.25   0.522   3.477   10.24    2.27    
 46  11.19    0.0   29.79   41.15   35.47   5.68   0.522   3.481   10.24    2.27    
 47  11.44    0.0   29.72   39.40   34.56   4.84   0.521   3.487   10.23    2.27    
 48  11.69    0.0   29.68   40.99   35.34   5.66   0.521   3.484   10.22    2.27    
 49  11.94    0.0   29.68   40.21   34.94   5.26   0.521   3.487   10.23    2.27    
 50  12.19    0.0   29.56   39.21   34.39   4.83   0.520   3.491   10.30    2.26    
 51  12.46    0.0   29.43   36.20   32.81   3.38   0.519   3.504   10.31    2.26    
 52  12.69    0.0   29.37   35.86   32.62   3.24   0.519   3.507   10.31    2.26    
 53  12.96    0.0   29.36   34.95   32.16   2.80   0.519   3.511   10.31    2.26    
 54  13.21    0.0   29.31   34.68   31.99   2.68   0.519   3.514   10.30    2.25    
 55  13.45    0.0   29.33   34.47   31.90   2.57   0.518   3.515   10.31    2.26    
 56  13.71    0.0   29.33   34.40   31.86   2.54   0.518   3.516   10.31    2.26    
 57  13.96    0.0   29.18   34.40   31.79   2.61   0.517   3.517   10.30    2.25    
 58  14.21    0.0   29.23   34.44   31.84   2.61   0.517   3.518   10.30    2.26    
 59  14.46    0.0   29.24   34.21   31.73   2.48   0.516   3.519   10.30    2.25    
 60  14.71    0.0   29.22   34.47   31.84   2.63   0.516   3.519   10.31    2.26    
