 No.  TimeTiltAng Theta(L) Theta(R)  Mean    Dev.  Height  Width   Area   Volume  Messages
  1  0.000    0.0   37.23   44.41   40.82   3.59   0.626   3.353    9.57    2.50    
  2  0.279    0.0   37.17   44.28   40.72   3.56   0.625   3.354    9.57    2.50    
  3  0.457    0.0   36.99   44.23   40.61   3.62   0.625   3.357    9.58    2.45    
  4  0.707    0.0   36.85   44.11   40.48   3.63   0.624   3.360    9.58    2.46    
  5  0.951    0.0   36.85   44.00   40.42   3.57   0.622   3.361    9.58    2.46    
  6  1.205    0.0   36.65   43.61   40.13   3.48   0.620   3.366    9.66    2.53    
  7  1.454    0.0   36.59   43.48   40.03   3.45   0.619   3.369    9.66    2.53    
  8  1.700    0.0   36.41   43.34   39.88   3.46   0.618   3.372    9.68    2.49    
  9  1.956    0.0   36.25   43.21   39.73   3.48   0.617   3.376    9.68    2.49    
 10  2.203    0.0   36.22   43.15   39.68   3.46   0.616   3.377    9.68    2.49    
 11  2.456    0.0   36.08   43.01   39.54   3.47   0.615   3.380    9.69    2.49    
 12  2.703    0.0   35.94   42.91   39.43   3.48   0.614   3.382    9.68    2.49    
 13  2.954    0.0   35.82   42.84   39.33   3.51   0.614   3.384    9.69    2.45    
 14  3.197    0.0   35.80   42.69   39.25   3.45   0.613   3.387    9.70    2.46    
 15  3.452    0.0   35.65   42.54   39.09   3.45   0.612   3.390    9.71    2.46    
 16  3.702    0.0   35.58   42.36   38.97   3.39   0.610   3.393    9.71    2.46    
 17  3.950    0.0   35.52   42.26   38.89   3.37   0.609   3.395    9.71    2.46    
 18  4.200    0.0   35.49   42.21   38.85   3.36   0.608   3.396    9.71    2.46    
 19  4.451    0.0   35.21   42.12   38.67   3.45   0.607   3.400    9.72    2.42    
 20  4.696    0.0   35.11   42.09   38.60   3.49   0.606   3.401    9.73    2.42    
 21  4.952    0.0   35.11   42.00   38.56   3.44   0.605   3.404    9.74    2.43    
 22  5.198    0.0   35.04   41.88   38.46   3.42   0.604   3.406    9.74    2.43    
 23  5.448    0.0   34.91   41.69   38.30   3.39   0.604   3.409    9.74    2.43    
 24  5.698    0.0   34.74   41.59   38.17   3.43   0.603   3.412    9.74    2.38    
 25  5.947    0.0   34.73   41.49   38.11   3.38   0.602   3.414    9.75    2.39    
 26  6.193    0.0   34.71   41.27   37.99   3.28   0.601   3.416    9.83    2.47    
 27  6.448    0.0   34.61   41.35   37.98   3.37   0.599   3.417    9.76    2.40    
 28  6.699    0.0   34.46   41.05   37.76   3.30   0.598   3.421    9.84    2.47    
 29  6.946    0.0   34.51   40.95   37.73   3.22   0.597   3.423    9.84    2.47    
 30  7.192    0.0   34.27   40.83   37.55   3.28   0.596   3.427    9.89    2.43    
 31  7.447    0.0   34.19   40.80   37.49   3.30   0.596   3.428    9.89    2.43    
 32  7.696    0.0   34.13   40.73   37.43   3.30   0.595   3.430    9.89    2.44    
 33  7.947    0.0   34.08   40.70   37.39   3.31   0.594   3.432    9.89    2.44    
 34  8.196    0.0   33.98   40.60   37.29   3.31   0.593   3.434    9.88    2.44    
 35  8.446    0.0   33.91   40.49   37.20   3.29   0.593   3.436    9.88    2.44    
 36  8.696    0.0   33.73   40.40   37.06   3.34   0.592   3.439    9.91    2.40    
 37  8.944    0.0   33.60   40.45   37.03   3.42   0.591   3.441    9.91    2.40    
 38  9.195    0.0   33.57   40.38   36.98   3.40   0.589   3.442    9.91    2.40    
 39  9.442    0.0   33.45   40.31   36.88   3.43   0.588   3.445    9.91    2.40    
 40  9.694    0.0   33.43   40.21   36.82   3.39   0.587   3.447    9.91    2.40    
 41  9.942    0.0   33.34   40.19   36.77   3.42   0.586   3.448    9.91    2.40    
 42  10.19    0.0   33.27   40.14   36.70   3.44   0.585   3.450    9.90    2.40    
 43  10.44    0.0   33.12   39.96   36.54   3.42   0.584   3.453    9.91    2.35    
 44  10.69    0.0   33.04   39.88   36.46   3.42   0.584   3.455    9.91    2.34    
 45  10.94    0.0   32.86   39.91   36.38   3.53   0.583   3.458    9.91    2.34    
 46  11.20    0.0   32.72   39.63   36.17   3.45   0.582   3.462    9.91    2.33    
 47  11.44    0.0   32.73   39.57   36.15   3.42   0.581   3.463    9.91    2.34    
 48  11.69    0.0   32.70   39.57   36.14   3.44   0.581   3.465    9.91    2.33    
 49  11.95    0.0   32.71   39.56   36.13   3.43   0.579   3.465    9.91    2.33    
 50  12.19    0.0   32.41   39.50   35.96   3.55   0.577   3.468    9.91    2.28    
 51  12.45    0.0   32.32   39.47   35.89   3.58   0.576   3.470    9.92    2.27    
 52  12.71    0.0   32.25   39.42   35.83   3.58   0.576   3.471    9.92    2.27    
 53  12.95    0.0   32.18   39.26   35.72   3.54   0.574   3.473    9.91    2.27    
 54  13.20    0.0   32.08   39.11   35.59   3.52   0.573   3.478   10.00    2.35    
 55  13.45    0.0   31.99   38.78   35.38   3.39   0.573   3.484   10.00    2.33    
 56  13.70    0.0   31.86   38.75   35.30   3.44   0.572   3.487   10.00    2.32    
 57  13.95    0.0   31.81   38.76   35.29   3.47   0.571   3.488    9.99    2.32    
 58  14.20    0.0   31.77   38.73   35.25   3.48   0.570   3.490   10.00    2.32    
 59  14.45    0.0   31.68   38.37   35.03   3.34   0.569   3.495   10.07    2.38    
 60  14.70    0.0   31.46   38.25   34.85   3.40   0.567   3.499   10.08    2.33    
