 No.  TimeTiltAng Theta(L) Theta(R)  Mean    Dev.  Height  Width   Area   Volume  Messages
  1  0.000    0.0   42.81   49.81   46.31   3.50   0.633   3.161    8.57    2.37    
  2  0.279    0.0   43.54   49.80   46.67   3.13   0.633   3.156    8.60    2.42    
  3  0.459    0.0   44.51   49.80   47.15   2.65   0.632   3.150    8.62    2.45    
  4  0.707    0.0   43.53   49.77   46.65   3.12   0.632   3.156    8.60    2.42    
  5  0.958    0.0   43.60   49.81   46.70   3.11   0.632   3.155    8.60    2.41    
  6  1.207    0.0   43.52   49.82   46.67   3.15   0.631   3.156    8.60    2.41    
  7  1.455    0.0   43.59   49.79   46.69   3.10   0.631   3.155    8.60    2.41    
  8  1.701    0.0   44.78   49.83   47.30   2.53   0.630   3.150    8.62    2.45    
  9  1.955    0.0   44.26   49.77   47.01   2.75   0.630   3.160    8.64    2.44    
 10  2.204    0.0   44.07   49.72   46.90   2.82   0.629   3.161    8.64    2.45    
 11  2.449    0.0   44.19   49.73   46.96   2.77   0.629   3.160    8.64    2.45    
 12  2.705    0.0   44.04   49.71   46.87   2.84   0.629   3.161    8.65    2.44    
 13  2.954    0.0   45.01   49.70   47.35   2.35   0.629   3.156    8.67    2.47    
 14  3.202    0.0   45.20   49.71   47.46   2.25   0.628   3.156    8.67    2.48    
 15  3.454    0.0   44.33   49.68   47.00   2.68   0.628   3.161    8.65    2.45    
 16  3.702    0.0   44.58   49.65   47.11   2.54   0.627   3.162    8.66    2.46    
 17  3.947    0.0   44.07   49.62   46.85   2.77   0.628   3.166    8.63    2.43    
 18  4.196    0.0   44.64   49.63   47.14   2.49   0.627   3.163    8.67    2.46    
 19  4.451    0.0   43.70   49.61   46.66   2.96   0.627   3.171    8.66    2.43    
 20  4.702    0.0   44.36   49.57   46.97   2.61   0.627   3.168    8.71    2.47    
 21  4.951    0.0   44.44   49.54   46.99   2.55   0.627   3.167    8.70    2.47    
 22  5.200    0.0   43.53   49.52   46.53   2.99   0.626   3.173    8.66    2.44    
 23  5.450    0.0   42.76   49.48   46.12   3.36   0.626   3.177    8.63    2.40    
 24  5.698    0.0   44.40   49.48   46.94   2.54   0.626   3.168    8.71    2.47    
 25  5.950    0.0   44.40   49.49   46.94   2.54   0.626   3.168    8.71    2.47    
 26  6.198    0.0   43.54   49.49   46.52   2.98   0.626   3.173    8.67    2.44    
 27  6.443    0.0   44.40   49.54   46.97   2.57   0.626   3.168    8.71    2.47    
 28  6.699    0.0   43.44   49.48   46.46   3.02   0.626   3.174    8.67    2.44    
 29  6.948    0.0   43.49   49.46   46.48   2.99   0.626   3.173    8.67    2.44    
 30  7.191    0.0   43.48   49.45   46.47   2.98   0.626   3.173    8.67    2.44    
 31  7.446    0.0   42.47   49.49   45.98   3.51   0.626   3.179    8.64    2.39    
 32  7.697    0.0   43.41   49.45   46.43   3.02   0.626   3.174    8.67    2.43    
 33  7.946    0.0   43.39   49.42   46.41   3.01   0.626   3.175    8.67    2.43    
 34  8.194    0.0   42.57   49.48   46.02   3.45   0.625   3.179    8.64    2.40    
 35  8.444    0.0   43.43   49.45   46.44   3.01   0.625   3.174    8.67    2.43    
 36  8.695    0.0   43.39   49.47   46.43   3.04   0.625   3.175    8.67    2.43    
 37  8.944    0.0   43.43   49.41   46.42   2.99   0.625   3.175    8.67    2.43    
 38  9.193    0.0   44.41   49.47   46.94   2.53   0.625   3.169    8.71    2.47    
 39  9.442    0.0   42.62   49.41   46.01   3.40   0.625   3.180    8.64    2.39    
 40  9.695    0.0   43.43   49.39   46.41   2.98   0.625   3.175    8.67    2.44    
 41  9.941    0.0   41.76   49.42   45.59   3.83   0.625   3.186    8.62    2.35    
 42  10.19    0.0   41.02   49.40   45.21   4.19   0.625   3.191    8.59    2.29    
 43  10.46    0.0   41.60   49.52   45.56   3.96   0.625   3.186    8.61    2.34    
 44  10.71    0.0   41.68   49.38   45.53   3.85   0.625   3.186    8.62    2.35    
 45  10.94    0.0   42.41   49.46   45.94   3.52   0.625   3.181    8.64    2.39    
 46  11.19    0.0   42.38   49.39   45.89   3.51   0.625   3.181    8.64    2.39    
 47  11.45    0.0   42.53   49.32   45.92   3.39   0.624   3.180    8.63    2.39    
 48  11.71    0.0   41.13   49.35   45.24   4.11   0.624   3.195    8.57    2.16    
 49  11.95    0.0   40.87   49.36   45.12   4.25   0.624   3.194    8.58    2.23    
 50  12.19    0.0   42.36   49.38   45.87   3.51   0.624   3.182    8.64    2.39    
 51  12.46    0.0   41.70   49.50   45.60   3.90   0.623   3.186    8.60    2.34    
 52  12.70    0.0   42.38   49.59   45.98   3.60   0.623   3.182    8.63    2.38    
 53  12.96    0.0   42.32   49.65   45.99   3.66   0.623   3.182    8.62    2.38    
 54  13.20    0.0   41.55   49.63   45.59   4.04   0.623   3.188    8.61    2.33    
 55  13.45    0.0   40.80   49.67   45.24   4.43   0.623   3.193    8.59    2.28    
 56  13.71    0.0   41.34   49.64   45.49   4.15   0.622   3.195    8.56    2.14    
 57  13.96    0.0   43.75   49.61   46.68   2.93   0.621   3.190    8.65    2.06    
 58  14.20    0.0   41.54   49.62   45.58   4.04   0.621   3.187    8.60    2.33    
 59  14.45    0.0   40.85   49.61   45.23   4.38   0.621   3.192    8.56    2.27    
 60  14.70    0.0   40.71   49.65   45.18   4.47   0.621   3.193    8.57    2.27    
