 No.  TimeTiltAng Theta(L) Theta(R)  Mean    Dev.  Height  Width   Area   Volume  Messages
  1  0.000    0.0   36.59   37.05   36.82   0.23   0.548   3.456   10.08    2.50    
  2  0.276    0.0   37.47   37.10   37.28   0.19   0.548   3.458   10.15    2.45    
  3  0.452    0.0   36.53   37.08   36.81   0.27   0.548   3.457   10.08    2.50    
  4  0.703    0.0   36.66   37.05   36.86   0.20   0.547   3.454   10.03    2.52    
  5  0.952    0.0   37.08   37.08   37.08   0.00   0.548   3.457   10.10    2.48    
  6  1.200    0.0   36.52   37.07   36.80   0.28   0.547   3.459   10.12    2.48    
  7  1.450    0.0   36.23   37.00   36.61   0.38   0.547   3.459   10.06    2.50    
  8  1.701    0.0   36.41   37.04   36.73   0.31   0.547   3.459   10.09    2.50    
  9  1.946    0.0   36.95   37.08   37.01   0.07   0.547   3.459   10.16    2.48    
 10  2.198    0.0   38.04   37.00   37.52   0.52   0.547   3.458   10.23    2.45    
 11  2.449    0.0   37.06   37.03   37.05   0.02   0.547   3.460   10.17    2.45    
 12  2.698    0.0   37.92   37.06   37.49   0.43   0.547   3.459   10.22    2.45    
 13  2.947    0.0   36.78   37.00   36.89   0.11   0.547   3.460   10.16    2.48    
 14  3.198    0.0   36.24   37.03   36.64   0.39   0.547   3.459   10.07    2.50    
 15  3.448    0.0   38.07   37.11   37.59   0.48   0.547   3.458   10.23    2.45    
 16  3.696    0.0   37.66   36.96   37.31   0.35   0.546   3.460   10.20    2.45    
 17  3.945    0.0   36.88   37.07   36.97   0.09   0.546   3.460   10.16    2.48    
 18  4.195    0.0   36.74   36.98   36.86   0.12   0.546   3.460   10.16    2.48    
 19  4.447    0.0   37.95   36.99   37.47   0.48   0.546   3.459   10.23    2.45    
 20  4.694    0.0   37.24   36.99   37.11   0.12   0.546   3.461   10.17    2.45    
 21  4.946    0.0   38.15   37.00   37.57   0.57   0.546   3.458   10.23    2.45    
 22  5.194    0.0   39.64   37.08   38.36   1.28   0.546   3.456   10.24    2.42    
 23  5.443    0.0   39.48   36.99   38.23   1.24   0.546   3.456   10.24    2.42    
 24  5.698    0.0   38.88   37.03   37.96   0.92   0.546   3.458   10.21    2.42    
 25  5.943    0.0   38.20   36.96   37.58   0.62   0.546   3.458   10.23    2.45    
 26  6.198    0.0   40.80   37.02   38.91   1.89   0.546   3.453   10.30    2.42    
 27  6.441    0.0   37.00   36.95   36.97   0.02   0.545   3.456   10.03    2.52    
 28  6.692    0.0   37.05   36.94   36.99   0.06   0.545   3.456   10.03    2.52    
 29  6.942    0.0   37.08   36.96   37.02   0.06   0.545   3.456   10.02    2.52    
 30  7.192    0.0   37.11   37.00   37.05   0.05   0.545   3.455   10.02    2.52    
 31  7.441    0.0   37.02   36.97   36.99   0.02   0.545   3.456   10.03    2.52    
 32  7.702    0.0   37.05   36.95   37.00   0.05   0.545   3.456   10.03    2.52    
 33  7.951    0.0   37.03   36.95   36.99   0.04   0.544   3.457   10.03    2.52    
 34  8.201    0.0   34.92   36.90   35.91   0.99   0.544   3.490   10.24    2.49    
 35  8.450    0.0   34.75   36.84   35.80   1.05   0.544   3.492   10.23    2.49    
 36  8.700    0.0   34.76   36.83   35.79   1.03   0.544   3.492   10.23    2.49    
 37  8.951    0.0   34.64   36.87   35.75   1.11   0.543   3.492   10.23    2.49    
 38  9.201    0.0   34.74   36.91   35.82   1.08   0.543   3.494   10.25    2.47    
 39  9.451    0.0   34.75   36.83   35.79   1.04   0.543   3.493   10.24    2.50    
 40  9.699    0.0   34.73   36.88   35.81   1.08   0.543   3.494   10.25    2.47    
 41  9.949    0.0   34.68   36.85   35.76   1.08   0.543   3.493   10.23    2.49    
 42  10.20    0.0   34.65   36.85   35.75   1.10   0.543   3.494   10.22    2.49    
 43  10.45    0.0   34.65   36.79   35.72   1.07   0.543   3.495   10.24    2.47    
 44  10.70    0.0   34.51   36.82   35.66   1.15   0.543   3.494   10.23    2.49    
 45  10.95    0.0   34.60   36.74   35.67   1.07   0.543   3.495   10.23    2.49    
 46  11.20    0.0   34.52   36.78   35.65   1.13   0.543   3.496   10.25    2.47    
 47  11.45    0.0   34.56   36.84   35.70   1.14   0.543   3.496   10.24    2.47    
 48  11.70    0.0   34.59   36.83   35.71   1.12   0.543   3.494   10.23    2.49    
 49  11.95    0.0   34.59   36.82   35.70   1.12   0.543   3.496   10.25    2.47    
 50  12.19    0.0   34.48   36.84   35.66   1.18   0.543   3.496   10.26    2.47    
 51  12.44    0.0   34.56   36.85   35.71   1.14   0.542   3.494   10.22    2.49    
 52  12.69    0.0   34.50   36.80   35.65   1.15   0.542   3.496   10.24    2.47    
 53  12.95    0.0   34.55   36.80   35.67   1.12   0.542   3.494   10.22    2.49    
 54  13.19    0.0   34.61   36.79   35.70   1.09   0.542   3.494   10.22    2.49    
 55  13.44    0.0   34.49   36.79   35.64   1.15   0.542   3.495   10.22    2.49    
 56  13.69    0.0   34.56   36.77   35.66   1.10   0.542   3.496   10.24    2.47    
 57  13.94    0.0   34.45   36.82   35.63   1.19   0.542   3.494   10.22    2.49    
 58  14.19    0.0   34.54   36.81   35.67   1.14   0.542   3.496   10.25    2.46    
 59  14.44    0.0   34.44   36.80   35.62   1.18   0.542   3.496   10.23    2.46    
 60  14.69    0.0   34.49   36.79   35.64   1.15   0.542   3.496   10.25    2.46    
