 No.  TimeTiltAng Theta(L) Theta(R)  Mean    Dev.  Height  Width   Area   Volume  Messages
  1  0.000    0.0   34.70   35.94   35.32   0.62   0.532   3.509   10.21    2.52    
  2  0.192    0.0   34.67   35.90   35.29   0.62   0.532   3.509   10.21    2.52    
  3  0.441    0.0   34.65   35.96   35.30   0.66   0.532   3.508   10.21    2.52    
  4  0.706    0.0   34.65   35.89   35.27   0.62   0.532   3.508   10.21    2.51    
  5  0.954    0.0   34.61   35.89   35.25   0.64   0.532   3.508   10.20    2.51    
  6  1.208    0.0   34.64   35.92   35.28   0.64   0.532   3.508   10.21    2.52    
  7  1.456    0.0   34.70   36.55   35.62   0.93   0.532   3.503   10.11    2.49    
  8  1.690    0.0   34.71   36.56   35.63   0.92   0.532   3.503   10.11    2.49    
  9  1.948    0.0   34.61   36.52   35.57   0.95   0.532   3.504   10.11    2.49    
 10  2.199    0.0   34.63   36.53   35.58   0.95   0.531   3.503   10.11    2.49    
 11  2.456    0.0   34.67   36.58   35.62   0.96   0.531   3.503   10.11    2.49    
 12  2.706    0.0   34.63   36.44   35.54   0.91   0.531   3.504   10.11    2.49    
 13  2.955    0.0   34.64   36.50   35.57   0.93   0.531   3.503   10.11    2.48    
 14  3.197    0.0   34.63   35.82   35.22   0.59   0.531   3.508   10.20    2.51    
 15  3.447    0.0   34.58   36.49   35.53   0.95   0.531   3.503   10.11    2.49    
 16  3.704    0.0   34.60   36.47   35.54   0.93   0.531   3.504   10.11    2.48    
 17  3.954    0.0   34.61   36.47   35.54   0.93   0.531   3.503   10.11    2.49    
 18  4.204    0.0   34.67   36.55   35.61   0.94   0.531   3.503   10.11    2.48    
 19  4.445    0.0   34.62   36.53   35.57   0.96   0.531   3.503   10.11    2.48    
 20  4.701    0.0   34.62   35.82   35.22   0.60   0.531   3.508   10.20    2.51    
 21  4.952    0.0   34.58   35.87   35.23   0.65   0.531   3.508   10.20    2.51    
 22  5.202    0.0   34.59   36.50   35.55   0.96   0.531   3.503   10.10    2.48    
 23  5.451    0.0   34.61   36.51   35.56   0.95   0.531   3.502   10.10    2.48    
 24  5.701    0.0   34.55   36.47   35.51   0.96   0.531   3.503   10.10    2.48    
 25  5.942    0.0   34.59   36.42   35.51   0.91   0.531   3.503   10.10    2.48    
 26  6.200    0.0   34.61   36.47   35.54   0.93   0.530   3.503   10.10    2.48    
 27  6.441    0.0   34.60   35.86   35.23   0.63   0.531   3.507   10.20    2.50    
 28  6.690    0.0   34.58   36.47   35.52   0.94   0.531   3.502   10.10    2.48    
 29  6.941    0.0   34.51   35.80   35.16   0.64   0.530   3.507   10.19    2.50    
 30  7.194    0.0   34.56   36.47   35.51   0.96   0.530   3.502   10.10    2.48    
 31  7.459    0.0   34.59   35.77   35.18   0.59   0.530   3.507   10.20    2.50    
 32  7.691    0.0   34.58   36.42   35.50   0.92   0.530   3.503   10.11    2.48    
 33  7.943    0.0   34.58   36.46   35.52   0.94   0.530   3.502   10.10    2.48    
 34  8.208    0.0   34.55   36.42   35.48   0.93   0.530   3.502   10.10    2.48    
 35  8.446    0.0   34.55   35.74   35.14   0.60   0.530   3.508   10.20    2.50    
 36  8.707    0.0   34.56   35.78   35.17   0.61   0.530   3.507   10.20    2.50    
 37  8.941    0.0   34.56   36.42   35.49   0.93   0.530   3.502   10.09    2.47    
 38  9.202    0.0   34.56   36.40   35.48   0.92   0.530   3.502   10.10    2.47    
 39  9.445    0.0   34.56   36.39   35.47   0.91   0.530   3.503   10.10    2.47    
 40  9.694    0.0   34.54   36.42   35.48   0.94   0.530   3.502   10.10    2.47    
 41  9.955    0.0   34.55   36.39   35.47   0.92   0.530   3.502   10.10    2.47    
 42  10.21    0.0   34.52   36.40   35.46   0.94   0.530   3.502   10.10    2.47    
 43  10.44    0.0   34.48   36.33   35.40   0.93   0.530   3.502   10.10    2.47    
 44  10.71    0.0   34.52   36.37   35.45   0.93   0.529   3.502   10.10    2.47    
 45  10.94    0.0   34.53   36.35   35.44   0.91   0.529   3.502   10.09    2.47    
 46  11.19    0.0   34.47   36.36   35.42   0.94   0.529   3.502   10.09    2.47    
 47  11.45    0.0   34.48   36.34   35.41   0.93   0.529   3.502   10.10    2.47    
 48  11.70    0.0   34.49   36.38   35.43   0.94   0.530   3.502   10.09    2.47    
 49  11.94    0.0   34.55   36.29   35.42   0.87   0.529   3.502   10.09    2.47    
 50  12.19    0.0   34.54   36.30   35.42   0.88   0.529   3.502   10.10    2.47    
 51  12.45    0.0   34.49   36.35   35.42   0.93   0.529   3.502   10.09    2.47    
 52  12.69    0.0   34.45   36.37   35.41   0.96   0.529   3.502   10.09    2.47    
 53  12.96    0.0   34.48   35.73   35.11   0.62   0.529   3.506   10.19    2.49    
 54  13.19    0.0   34.48   36.32   35.40   0.92   0.528   3.501   10.09    2.46    
 55  13.45    0.0   34.40   36.32   35.36   0.96   0.529   3.502   10.09    2.46    
 56  13.70    0.0   34.49   36.28   35.38   0.90   0.528   3.502   10.10    2.46    
 57  13.95    0.0   34.41   36.25   35.33   0.92   0.528   3.503   10.09    2.46    
 58  14.20    0.0   34.47   36.32   35.39   0.92   0.529   3.501   10.09    2.46    
 59  14.45    0.0   34.46   36.31   35.39   0.92   0.528   3.502   10.09    2.46    
 60  14.70    0.0   34.40   36.29   35.34   0.94   0.528   3.502   10.09    2.46    
