 No.  TimeTiltAng Theta(L) Theta(R)  Mean    Dev.  Height  Width   Area   Volume  Messages
  1  0.000    0.0   52.72   51.64   52.18   0.54   0.672   2.822    7.46    2.15    
  2  0.266    0.0   52.66   51.60   52.13   0.53   0.671   2.824    7.46    2.14    
  3  0.443    0.0   52.58   51.48   52.03   0.55   0.670   2.825    7.46    2.14    
  4  0.695    0.0   52.49   51.35   51.92   0.57   0.669   2.827    7.46    2.14    
  5  0.943    0.0   52.29   51.21   51.75   0.54   0.667   2.828    7.46    2.13    
  6  1.192    0.0   52.25   51.06   51.65   0.59   0.666   2.830    7.46    2.13    
  7  1.443    0.0   52.05   50.88   51.46   0.58   0.664   2.834    7.47    2.12    
  8  1.691    0.0   52.10   50.55   51.33   0.78   0.661   2.837    7.47    2.12    
  9  1.942    0.0   52.11   50.39   51.25   0.86   0.660   2.839    7.47    2.12    
 10  2.190    0.0   52.01   50.14   51.07   0.93   0.658   2.841    7.46    2.11    
 11  2.441    0.0   51.86   50.04   50.95   0.91   0.657   2.843    7.49    2.11    
 12  2.690    0.0   51.73   49.82   50.77   0.96   0.656   2.847    7.49    2.11    
 13  2.940    0.0   51.61   49.69   50.65   0.96   0.654   2.849    7.50    2.12    
 14  3.190    0.0   51.28   49.50   50.39   0.89   0.652   2.854    7.51    2.11    
 15  3.458    0.0   50.91   49.39   50.15   0.76   0.650   2.859    7.52    2.11    
 16  3.709    0.0   50.64   49.29   49.97   0.67   0.648   2.862    7.52    2.10    
 17  3.940    0.0   50.41   49.10   49.76   0.65   0.647   2.864    7.54    2.11    
 18  4.208    0.0   49.59   48.99   49.29   0.30   0.645   2.875    7.58    2.11    
 19  4.440    0.0   49.41   48.76   49.09   0.32   0.643   2.878    7.58    2.11    
 20  4.708    0.0   49.32   48.72   49.02   0.30   0.641   2.879    7.58    2.11    
 21  4.957    0.0   49.23   48.60   48.92   0.32   0.640   2.881    7.58    2.10    
 22  5.208    0.0   49.20   48.42   48.81   0.39   0.639   2.883    7.58    2.10    
 23  5.455    0.0   49.12   48.36   48.74   0.38   0.638   2.884    7.58    2.09    
 24  5.708    0.0   49.02   48.22   48.62   0.40   0.636   2.886    7.58    2.09    
 25  5.954    0.0   48.87   47.98   48.42   0.44   0.635   2.888    7.59    2.09    
 26  6.204    0.0   48.60   48.04   48.32   0.28   0.634   2.889    7.64    2.11    
 27  6.453    0.0   48.40   48.20   48.30   0.10   0.631   2.891    7.64    2.11    
 28  6.703    0.0   48.29   48.06   48.17   0.12   0.629   2.893    7.64    2.10    
 29  6.953    0.0   48.25   47.92   48.09   0.17   0.628   2.895    7.63    2.10    
 30  7.198    0.0   48.17   47.86   48.01   0.15   0.627   2.896    7.63    2.09    
 31  7.452    0.0   48.11   47.80   47.95   0.15   0.627   2.898    7.63    2.09    
 32  7.702    0.0   48.00   47.72   47.86   0.14   0.626   2.900    7.62    2.08    
 33  7.953    0.0   47.68   47.65   47.67   0.01   0.625   2.903    7.69    2.10    
 34  8.204    0.0   47.57   47.48   47.52   0.05   0.624   2.905    7.68    2.09    
 35  8.450    0.0   47.57   47.35   47.46   0.11   0.622   2.907    7.67    2.09    
 36  8.702    0.0   47.47   47.13   47.30   0.17   0.620   2.909    7.66    2.08    
 37  8.951    0.0   46.61   46.94   46.77   0.17   0.618   2.919    7.70    2.08    
 38  9.201    0.0   46.28   46.78   46.53   0.25   0.617   2.924    7.74    2.10    
 39  9.449    0.0   46.17   46.62   46.40   0.22   0.616   2.925    7.73    2.09    
 40  9.698    0.0   46.10   46.52   46.31   0.21   0.615   2.927    7.73    2.09    
 41  9.948    0.0   46.06   46.45   46.26   0.19   0.614   2.928    7.73    2.08    
 42  10.20    0.0   45.99   46.32   46.16   0.16   0.613   2.929    7.72    2.08    
 43  10.44    0.0   45.95   46.22   46.09   0.13   0.611   2.929    7.72    2.07    
 44  10.70    0.0   45.96   46.08   46.02   0.06   0.610   2.930    7.71    2.06    
 45  10.95    0.0   45.92   45.96   45.94   0.02   0.608   2.931    7.71    2.06    
 46  11.20    0.0   45.89   45.86   45.87   0.01   0.607   2.931    7.70    2.05    
 47  11.44    0.0   45.96   45.67   45.81   0.14   0.606   2.932    7.69    2.04    
 48  11.70    0.0   45.67   45.56   45.62   0.05   0.604   2.935    7.74    2.06    
 49  11.94    0.0   45.43   45.38   45.40   0.02   0.602   2.936    7.73    2.05    
 50  12.20    0.0   45.33   45.33   45.33   0.00   0.601   2.937    7.73    2.05    
 51  12.45    0.0   45.33   45.23   45.28   0.05   0.600   2.938    7.72    2.04    
 52  12.69    0.0   44.62   44.78   44.70   0.08   0.594   2.936    7.70    2.02    
 53  12.95    0.0   44.60   44.66   44.63   0.03   0.592   2.935    7.64    1.99    
 54  13.19    0.0   44.23   44.61   44.42   0.19   0.590   2.936    7.68    2.00    
 55  13.44    0.0   44.10   44.51   44.31   0.20   0.588   2.937    7.68    2.00    
 56  13.69    0.0   44.11   44.38   44.24   0.14   0.587   2.937    7.67    1.99    
 57  13.94    0.0   43.94   44.32   44.13   0.19   0.586   2.939    7.67    1.99    
 58  14.19    0.0   43.91   44.23   44.07   0.16   0.585   2.939    7.67    1.99    
 59  14.46    0.0   43.90   44.11   44.00   0.11   0.584   2.939    7.67    1.98    
 60  14.69    0.0   43.86   44.04   43.95   0.09   0.583   2.940    7.66    1.98    
