 No.  TimeTiltAng Theta(L) Theta(R)  Mean    Dev.  Height  Width   Area   Volume  Messages
  1  0.000    0.0   42.91   39.08   40.99   1.92   0.627   3.450   10.34    2.91    
  2  0.264    0.0   42.88   38.95   40.91   1.96   0.626   3.453   10.33    2.90    
  3  0.444    0.0   42.86   38.87   40.87   1.99   0.625   3.456   10.33    2.90    
  4  0.703    0.0   42.82   38.80   40.81   2.01   0.625   3.458   10.36    2.91    
  5  0.942    0.0   42.84   38.73   40.78   2.06   0.624   3.461   10.36    2.90    
  6  1.204    0.0   42.37   38.72   40.54   1.82   0.623   3.469   10.43    2.91    
  7  1.451    0.0   42.34   38.73   40.53   1.81   0.622   3.471   10.43    2.90    
  8  1.701    0.0   43.26   38.65   40.96   2.31   0.620   3.475   10.61    2.87    
  9  1.952    0.0   42.16   38.67   40.41   1.75   0.620   3.476   10.43    2.90    
 10  2.200    0.0   42.26   38.65   40.45   1.80   0.618   3.479   10.45    2.88    
 11  2.451    0.0   42.08   38.63   40.36   1.72   0.618   3.481   10.43    2.87    
 12  2.701    0.0   42.49   38.57   40.53   1.96   0.617   3.485   10.60    2.89    
 13  2.949    0.0   42.35   38.43   40.39   1.96   0.616   3.488   10.62    2.88    
 14  3.192    0.0   42.20   38.49   40.35   1.85   0.615   3.490   10.63    2.88    
 15  3.448    0.0   42.16   38.48   40.32   1.84   0.615   3.492   10.63    2.88    
 16  3.698    0.0   42.01   38.32   40.17   1.84   0.614   3.494   10.64    2.88    
 17  3.948    0.0   41.85   38.26   40.05   1.79   0.613   3.498   10.64    2.87    
 18  4.198    0.0   41.85   38.28   40.06   1.79   0.613   3.500   10.64    2.87    
 19  4.448    0.0   41.59   38.22   39.91   1.68   0.612   3.502   10.64    2.87    
 20  4.696    0.0   41.51   38.10   39.81   1.70   0.610   3.505   10.69    2.90    
 21  4.947    0.0   41.50   38.00   39.75   1.75   0.609   3.507   10.70    2.89    
 22  5.195    0.0   41.40   37.98   39.69   1.71   0.608   3.509   10.70    2.89    
 23  5.445    0.0   42.00   37.89   39.94   2.06   0.607   3.512   10.76    2.87    
 24  5.697    0.0   41.76   37.89   39.82   1.94   0.607   3.514   10.74    2.86    
 25  5.945    0.0   41.72   37.74   39.73   1.99   0.605   3.515   10.74    2.85    
 26  6.195    0.0   41.05   37.77   39.41   1.64   0.604   3.516   10.66    2.87    
 27  6.444    0.0   41.18   37.65   39.41   1.77   0.603   3.521   10.70    2.85    
 28  6.695    0.0   41.13   37.66   39.39   1.74   0.603   3.522   10.76    2.88    
 29  6.944    0.0   40.96   37.45   39.20   1.75   0.602   3.526   10.76    2.88    
 30  7.193    0.0   40.92   37.40   39.16   1.76   0.601   3.528   10.75    2.87    
 31  7.445    0.0   40.85   37.38   39.12   1.73   0.600   3.529   10.74    2.86    
 32  7.692    0.0   40.65   37.27   38.96   1.69   0.599   3.532   10.72    2.86    
 33  7.944    0.0   40.60   37.12   38.86   1.74   0.598   3.535   10.80    2.88    
 34  8.192    0.0   40.58   37.18   38.88   1.70   0.597   3.536   10.80    2.88    
 35  8.442    0.0   40.57   36.97   38.77   1.80   0.596   3.538   10.80    2.87    
 36  8.691    0.0   40.45   36.83   38.64   1.81   0.595   3.541   10.79    2.87    
 37  8.960    0.0   40.25   36.74   38.49   1.76   0.595   3.544   10.79    2.87    
 38  9.192    0.0   40.23   36.72   38.48   1.75   0.594   3.546   10.78    2.86    
 39  9.460    0.0   40.06   36.69   38.38   1.69   0.593   3.548   10.78    2.86    
 40  9.691    0.0   40.52   36.57   38.54   1.98   0.593   3.551   10.77    2.84    
 41  9.960    0.0   39.99   36.61   38.30   1.69   0.592   3.552   10.82    2.88    
 42  10.21    0.0   40.02   36.51   38.26   1.76   0.591   3.554   10.83    2.88    
 43  10.46    0.0   39.93   36.41   38.17   1.76   0.591   3.556   10.82    2.87    
 44  10.71    0.0   39.74   36.35   38.05   1.70   0.589   3.559   10.81    2.87    
 45  10.96    0.0   40.10   36.31   38.21   1.89   0.588   3.562   10.85    2.85    
 46  11.21    0.0   40.08   36.29   38.19   1.90   0.587   3.563   10.85    2.85    
 47  11.45    0.0   40.19   36.27   38.23   1.96   0.586   3.561   10.83    2.86    
 48  11.71    0.0   40.53   35.99   38.26   2.27   0.585   3.562   10.90    2.88    
 49  11.96    0.0   40.60   35.94   38.27   2.33   0.584   3.563   10.90    2.87    
 50  12.21    0.0   40.74   35.84   38.29   2.45   0.583   3.564   10.90    2.86    
 51  12.46    0.0   40.81   35.85   38.33   2.48   0.583   3.564   10.90    2.86    
 52  12.70    0.0   40.61   35.76   38.19   2.42   0.582   3.567   10.90    2.86    
 53  12.95    0.0   40.60   35.55   38.07   2.52   0.581   3.571   10.90    2.85    
 54  13.20    0.0   40.55   35.40   37.97   2.58   0.581   3.574   10.90    2.85    
 55  13.45    0.0   40.61   35.37   37.99   2.62   0.579   3.575   10.93    2.86    
 56  13.70    0.0   40.55   35.28   37.92   2.63   0.578   3.577   10.93    2.85    
 57  13.95    0.0   40.60   35.08   37.84   2.76   0.577   3.579   10.93    2.85    
 58  14.20    0.0   40.75   35.06   37.90   2.84   0.576   3.582   11.00    2.85    
 59  14.45    0.0   40.46   35.02   37.74   2.72   0.576   3.582   10.93    2.84    
 60  14.70    0.0   40.29   34.98   37.64   2.65   0.574   3.584   10.93    2.84    
