 No.  TimeTiltAng Theta(L) Theta(R)  Mean    Dev.  Height  Width   Area   Volume  Messages
  1  0.000    0.0   53.34   51.11   52.23   1.11   0.715   2.983    8.36    2.57    
  2  0.266    0.0   53.14   50.87   52.01   1.14   0.715   2.985    8.37    2.57    
  3  0.443    0.0   53.28   50.81   52.04   1.23   0.714   2.985    8.37    2.57    
  4  0.695    0.0   53.57   50.86   52.21   1.35   0.713   2.983    8.36    2.57    
  5  0.943    0.0   53.67   50.70   52.19   1.48   0.713   2.984    8.37    2.56    
  6  1.192    0.0   54.01   50.57   52.29   1.72   0.713   2.984    8.36    2.56    
  7  1.441    0.0   54.26   50.49   52.38   1.89   0.712   2.983    8.35    2.56    
  8  1.691    0.0   53.84   50.54   52.19   1.65   0.711   2.984    8.36    2.56    
  9  1.943    0.0   53.97   50.27   52.12   1.85   0.709   2.983    8.33    2.54    
 10  2.192    0.0   53.90   50.12   52.01   1.89   0.708   2.983    8.33    2.54    
 11  2.441    0.0   53.71   50.09   51.90   1.81   0.707   2.984    8.33    2.53    
 12  2.691    0.0   53.90   50.06   51.98   1.92   0.706   2.982    8.32    2.53    
 13  2.959    0.0   53.75   49.99   51.87   1.88   0.705   2.984    8.32    2.53    
 14  3.191    0.0   54.36   49.96   52.16   2.20   0.704   2.984    8.31    2.53    
 15  3.459    0.0   54.10   49.95   52.02   2.07   0.704   2.986    8.32    2.53    
 16  3.709    0.0   54.20   49.73   51.96   2.23   0.703   2.986    8.33    2.53    
 17  3.953    0.0   54.43   49.80   52.12   2.31   0.702   2.985    8.31    2.52    
 18  4.209    0.0   55.89   49.73   52.81   3.08   0.702   2.980    8.31    2.53    
 19  4.456    0.0   56.06   49.59   52.83   3.23   0.702   2.982    8.31    2.53    
 20  4.707    0.0   56.01   49.74   52.88   3.13   0.701   2.982    8.30    2.53    
 21  4.956    0.0   55.98   49.71   52.84   3.14   0.701   2.982    8.30    2.53    
 22  5.207    0.0   55.98   49.53   52.75   3.23   0.700   2.983    8.30    2.53    
 23  5.450    0.0   55.96   49.30   52.63   3.33   0.699   2.984    8.30    2.52    
 24  5.704    0.0   55.91   48.12   52.02   3.90   0.699   2.991    8.29    2.52    
 25  5.954    0.0   55.70   47.90   51.80   3.90   0.698   2.993    8.29    2.52    
 26  6.206    0.0   55.19   47.75   51.47   3.72   0.697   2.998    8.31    2.52    
 27  6.453    0.0   53.48   47.66   50.57   2.91   0.696   3.008    8.36    2.52    
 28  6.703    0.0   53.36   47.30   50.33   3.03   0.695   3.012    8.37    2.51    
 29  6.952    0.0   53.56   46.76   50.16   3.40   0.694   3.015    8.37    2.51    
 30  7.203    0.0   52.75   46.59   49.67   3.08   0.694   3.022    8.38    2.50    
 31  7.454    0.0   52.79   46.67   49.73   3.06   0.693   3.020    8.40    2.51    
 32  7.703    0.0   52.76   46.57   49.67   3.09   0.693   3.025    8.36    2.49    
 33  7.947    0.0   52.48   46.50   49.49   2.99   0.692   3.023    8.37    2.49    
 34  8.196    0.0   52.47   46.35   49.41   3.06   0.691   3.025    8.37    2.49    
 35  8.451    0.0   52.51   46.24   49.37   3.13   0.691   3.025    8.38    2.49    
 36  8.701    0.0   52.43   46.38   49.40   3.02   0.691   3.024    8.40    2.50    
 37  8.951    0.0   52.48   46.21   49.34   3.14   0.691   3.026    8.37    2.49    
 38  9.199    0.0   52.67   46.22   49.45   3.22   0.690   3.023    8.38    2.49    
 39  9.448    0.0   53.09   46.20   49.64   3.44   0.690   3.021    8.37    2.48    
 40  9.701    0.0   53.58   46.12   49.85   3.73   0.689   3.022    8.33    2.48    
 41  9.948    0.0   52.62   45.93   49.28   3.35   0.689   3.026    8.37    2.48    
 42  10.20    0.0   54.51   45.83   50.17   4.34   0.688   3.017    8.30    2.47    
 43  10.45    0.0   53.26   45.95   49.60   3.65   0.688   3.021    8.35    2.47    
 44  10.70    0.0   52.97   45.70   49.34   3.63   0.687   3.024    8.34    2.46    
 45  10.95    0.0   52.93   45.61   49.27   3.66   0.686   3.024    8.35    2.46    
 46  11.20    0.0   53.45   45.46   49.46   4.00   0.686   3.022    8.35    2.47    
 47  11.45    0.0   53.82   45.55   49.69   4.13   0.684   3.021    8.30    2.45    
 48  11.69    0.0   53.94   45.35   49.65   4.29   0.682   3.019    8.31    2.46    
 49  11.96    0.0   52.92   45.49   49.20   3.72   0.682   3.022    8.34    2.46    
 50  12.19    0.0   53.67   45.41   49.54   4.13   0.681   3.018    8.30    2.45    
 51  12.44    0.0   53.08   45.13   49.11   3.98   0.681   3.023    8.33    2.45    
 52  12.69    0.0   52.88   45.19   49.03   3.84   0.680   3.024    8.32    2.43    
 53  12.94    0.0   52.85   45.27   49.06   3.79   0.680   3.023    8.34    2.45    
 54  13.19    0.0   53.77   45.20   49.49   4.28   0.679   3.021    8.29    2.44    
 55  13.44    0.0   53.67   45.20   49.43   4.24   0.679   3.021    8.28    2.42    
 56  13.69    0.0   53.43   45.12   49.28   4.16   0.679   3.023    8.28    2.42    
 57  13.94    0.0   53.38   45.14   49.26   4.12   0.679   3.023    8.28    2.42    
 58  14.19    0.0   53.13   45.09   49.11   4.02   0.678   3.028    8.29    2.41    
 59  14.44    0.0   53.06   44.88   48.97   4.09   0.678   3.028    8.29    2.41    
 60  14.71    0.0   52.89   44.92   48.91   3.99   0.678   3.029    8.33    2.45    
