 No.  TimeTiltAng Theta(L) Theta(R)  Mean    Dev.  Height  Width   Area   Volume  Messages
  1  0.000    0.0   57.75   64.77   61.26   3.51   0.831   2.890    8.57    2.92    
  2  0.281    0.0   57.82   64.84   61.33   3.51   0.831   2.889    8.57    2.91    
  3  0.459    0.0   57.78   64.83   61.30   3.53   0.830   2.889    8.57    2.91    
  4  0.703    0.0   57.78   64.77   61.27   3.49   0.830   2.889    8.57    2.91    
  5  0.952    0.0   57.77   64.86   61.31   3.54   0.830   2.889    8.57    2.91    
  6  1.208    0.0   57.80   64.85   61.33   3.52   0.830   2.889    8.57    2.91    
  7  1.456    0.0   57.79   64.91   61.35   3.56   0.830   2.889    8.56    2.91    
  8  1.707    0.0   57.77   64.90   61.33   3.57   0.830   2.889    8.56    2.91    
  9  1.956    0.0   57.74   64.85   61.30   3.55   0.830   2.889    8.56    2.91    
 10  2.205    0.0   57.69   64.95   61.32   3.63   0.830   2.889    8.56    2.91    
 11  2.455    0.0   57.75   64.93   61.34   3.59   0.830   2.889    8.56    2.91    
 12  2.705    0.0   57.74   64.92   61.33   3.59   0.830   2.889    8.56    2.91    
 13  2.954    0.0   57.74   64.90   61.32   3.58   0.829   2.889    8.56    2.91    
 14  3.198    0.0   57.68   64.88   61.28   3.60   0.829   2.890    8.56    2.91    
 15  3.454    0.0   57.62   64.87   61.24   3.63   0.829   2.890    8.56    2.91    
 16  3.702    0.0   57.51   64.78   61.14   3.63   0.829   2.892    8.56    2.91    
 17  3.949    0.0   57.27   64.89   61.08   3.81   0.829   2.893    8.57    2.91    
 18  4.201    0.0   57.20   64.83   61.02   3.82   0.829   2.894    8.58    2.91    
 19  4.451    0.0   57.20   64.88   61.04   3.84   0.829   2.894    8.56    2.90    
 20  4.702    0.0   57.15   64.89   61.02   3.87   0.829   2.895    8.57    2.91    
 21  4.949    0.0   57.14   64.87   61.00   3.86   0.828   2.895    8.57    2.91    
 22  5.200    0.0   57.04   64.90   60.97   3.93   0.828   2.895    8.56    2.90    
 23  5.449    0.0   57.05   64.93   60.99   3.94   0.828   2.895    8.56    2.90    
 24  5.698    0.0   57.02   64.83   60.93   3.90   0.828   2.895    8.56    2.90    
 25  5.950    0.0   57.10   64.87   60.98   3.89   0.828   2.895    8.56    2.90    
 26  6.193    0.0   56.99   64.82   60.90   3.91   0.828   2.896    8.56    2.90    
 27  6.447    0.0   56.98   64.90   60.94   3.96   0.827   2.896    8.56    2.90    
 28  6.698    0.0   56.95   64.82   60.88   3.94   0.827   2.896    8.58    2.91    
 29  6.948    0.0   56.97   64.87   60.92   3.95   0.827   2.896    8.56    2.90    
 30  7.194    0.0   56.98   64.79   60.88   3.90   0.827   2.897    8.56    2.90    
 31  7.447    0.0   56.98   64.80   60.89   3.91   0.827   2.897    8.56    2.90    
 32  7.696    0.0   56.90   64.68   60.79   3.89   0.827   2.898    8.58    2.91    
 33  7.960    0.0   56.92   64.63   60.78   3.85   0.827   2.898    8.58    2.91    
 34  8.194    0.0   56.90   64.55   60.73   3.82   0.827   2.899    8.58    2.91    
 35  8.444    0.0   56.92   64.49   60.71   3.79   0.827   2.899    8.58    2.91    
 36  8.694    0.0   56.90   64.44   60.67   3.77   0.826   2.900    8.59    2.91    
 37  8.944    0.0   56.91   64.42   60.66   3.76   0.827   2.900    8.58    2.91    
 38  9.192    0.0   56.92   64.35   60.64   3.71   0.826   2.900    8.59    2.91    
 39  9.444    0.0   56.89   64.31   60.60   3.71   0.826   2.900    8.57    2.89    
 40  9.691    0.0   56.88   64.33   60.60   3.72   0.826   2.900    8.59    2.91    
 41  9.942    0.0   56.84   64.29   60.56   3.72   0.825   2.900    8.58    2.91    
 42  10.19    0.0   56.82   64.28   60.55   3.73   0.826   2.900    8.57    2.89    
 43  10.46    0.0   56.85   64.28   60.56   3.72   0.825   2.900    8.59    2.91    
 44  10.69    0.0   56.80   64.27   60.53   3.73   0.825   2.901    8.57    2.89    
 45  10.96    0.0   56.81   64.25   60.53   3.72   0.825   2.901    8.59    2.90    
 46  11.21    0.0   56.84   64.21   60.53   3.68   0.825   2.901    8.57    2.89    
 47  11.45    0.0   56.80   64.19   60.50   3.69   0.825   2.901    8.58    2.90    
 48  11.71    0.0   56.88   64.15   60.51   3.63   0.824   2.901    8.57    2.89    
 49  11.96    0.0   56.85   64.09   60.47   3.62   0.824   2.901    8.57    2.89    
 50  12.21    0.0   56.89   64.15   60.52   3.63   0.824   2.901    8.57    2.89    
 51  12.45    0.0   56.91   64.03   60.47   3.56   0.824   2.902    8.57    2.89    
 52  12.69    0.0   56.97   64.00   60.49   3.52   0.823   2.904    8.56    2.88    
 53  12.95    0.0   57.00   64.05   60.52   3.52   0.823   2.904    8.56    2.88    
 54  13.20    0.0   56.99   63.99   60.49   3.50   0.823   2.904    8.56    2.88    
 55  13.46    0.0   56.97   64.03   60.50   3.53   0.823   2.904    8.56    2.88    
 56  13.70    0.0   56.99   63.96   60.47   3.49   0.822   2.905    8.56    2.88    
 57  13.95    0.0   56.99   64.02   60.50   3.51   0.822   2.905    8.56    2.88    
 58  14.20    0.0   56.88   63.97   60.42   3.54   0.822   2.905    8.56    2.88    
 59  14.45    0.0   56.81   63.97   60.39   3.58   0.821   2.906    8.56    2.88    
 60  14.70    0.0   56.75   63.94   60.35   3.59   0.822   2.906    8.57    2.88    
