 No.  TimeTiltAng Theta(L) Theta(R)  Mean    Dev.  Height  Width   Area   Volume  Messages
  1  0.000    0.0   62.20   68.49   65.34   3.14   0.871   2.708    7.96    2.73    
  2  0.277    0.0   62.19   68.53   65.36   3.17   0.871   2.708    7.96    2.73    
  3  0.453    0.0   62.21   68.45   65.33   3.12   0.871   2.708    7.95    2.72    
  4  0.699    0.0   62.23   68.46   65.34   3.12   0.871   2.708    7.94    2.72    
  5  0.952    0.0   62.18   68.44   65.31   3.13   0.871   2.708    7.94    2.72    
  6  1.202    0.0   62.19   68.46   65.32   3.14   0.871   2.708    7.95    2.73    
  7  1.454    0.0   62.17   68.50   65.34   3.16   0.870   2.708    7.96    2.73    
  8  1.703    0.0   62.21   68.48   65.34   3.14   0.870   2.708    7.95    2.73    
  9  1.951    0.0   62.20   68.46   65.33   3.13   0.870   2.707    7.95    2.73    
 10  2.202    0.0   62.20   68.45   65.33   3.12   0.870   2.707    7.94    2.72    
 11  2.452    0.0   62.17   68.50   65.34   3.17   0.870   2.708    7.95    2.73    
 12  2.702    0.0   62.22   68.42   65.32   3.10   0.870   2.707    7.94    2.72    
 13  2.951    0.0   62.12   68.47   65.30   3.17   0.870   2.708    7.94    2.72    
 14  3.196    0.0   62.15   68.49   65.32   3.17   0.870   2.707    7.94    2.72    
 15  3.449    0.0   62.19   68.52   65.36   3.16   0.870   2.708    7.94    2.72    
 16  3.698    0.0   62.14   68.47   65.31   3.16   0.869   2.707    7.94    2.72    
 17  3.947    0.0   62.16   68.41   65.28   3.13   0.869   2.707    7.94    2.72    
 18  4.199    0.0   62.16   68.47   65.31   3.15   0.869   2.707    7.93    2.72    
 19  4.447    0.0   62.22   68.44   65.33   3.11   0.869   2.707    7.93    2.72    
 20  4.697    0.0   62.18   68.45   65.32   3.14   0.869   2.707    7.93    2.71    
 21  4.948    0.0   62.18   68.41   65.30   3.11   0.869   2.707    7.93    2.71    
 22  5.196    0.0   62.20   68.45   65.32   3.12   0.868   2.707    7.94    2.72    
 23  5.447    0.0   62.15   68.41   65.28   3.13   0.869   2.707    7.93    2.71    
 24  5.697    0.0   62.24   68.46   65.35   3.11   0.868   2.707    7.94    2.72    
 25  5.946    0.0   62.20   68.45   65.33   3.12   0.868   2.707    7.93    2.71    
 26  6.194    0.0   62.23   68.42   65.32   3.09   0.868   2.706    7.94    2.72    
 27  6.443    0.0   62.16   68.44   65.30   3.14   0.868   2.707    7.94    2.72    
 28  6.693    0.0   62.14   68.45   65.30   3.15   0.868   2.707    7.93    2.71    
 29  6.942    0.0   62.18   68.47   65.33   3.14   0.868   2.706    7.94    2.72    
 30  7.192    0.0   62.17   68.46   65.31   3.14   0.867   2.706    7.92    2.71    
 31  7.457    0.0   62.21   68.48   65.35   3.14   0.867   2.706    7.94    2.72    
 32  7.693    0.0   62.18   68.46   65.32   3.14   0.867   2.706    7.93    2.72    
 33  7.942    0.0   62.22   68.46   65.34   3.12   0.867   2.706    7.93    2.72    
 34  8.206    0.0   62.19   68.47   65.33   3.14   0.867   2.706    7.93    2.72    
 35  8.442    0.0   62.18   68.44   65.31   3.13   0.867   2.706    7.93    2.72    
 36  8.690    0.0   62.13   68.44   65.29   3.16   0.867   2.707    7.93    2.72    
 37  8.955    0.0   62.19   68.45   65.32   3.13   0.867   2.706    7.93    2.72    
 38  9.200    0.0   62.18   68.42   65.30   3.12   0.866   2.706    7.93    2.71    
 39  9.459    0.0   62.11   68.48   65.30   3.18   0.866   2.706    7.93    2.71    
 40  9.708    0.0   62.16   68.47   65.32   3.15   0.866   2.706    7.93    2.71    
 41  9.940    0.0   62.12   68.46   65.29   3.17   0.866   2.706    7.93    2.71    
 42  10.21    0.0   62.10   68.44   65.27   3.17   0.865   2.706    7.93    2.71    
 43  10.45    0.0   62.13   68.43   65.28   3.15   0.865   2.706    7.93    2.71    
 44  10.70    0.0   62.11   68.44   65.28   3.17   0.865   2.706    7.93    2.71    
 45  10.95    0.0   62.09   68.47   65.28   3.19   0.865   2.706    7.92    2.71    
 46  11.20    0.0   62.10   68.47   65.29   3.19   0.865   2.706    7.92    2.71    
 47  11.45    0.0   62.11   68.48   65.30   3.18   0.865   2.705    7.92    2.71    
 48  11.71    0.0   62.08   68.38   65.23   3.15   0.865   2.706    7.92    2.71    
 49  11.95    0.0   62.09   68.47   65.28   3.19   0.865   2.706    7.92    2.71    
 50  12.20    0.0   62.11   68.38   65.25   3.13   0.864   2.706    7.92    2.71    
 51  12.45    0.0   62.01   68.46   65.24   3.23   0.864   2.705    7.92    2.70    
 52  12.70    0.0   62.08   68.47   65.28   3.19   0.865   2.706    7.92    2.71    
 53  12.95    0.0   62.08   68.51   65.29   3.21   0.864   2.706    7.92    2.71    
 54  13.19    0.0   62.09   68.48   65.28   3.20   0.864   2.705    7.92    2.71    
 55  13.45    0.0   62.04   68.43   65.24   3.20   0.863   2.706    7.92    2.70    
 56  13.70    0.0   62.07   68.42   65.24   3.18   0.864   2.706    7.92    2.70    
 57  13.95    0.0   62.05   68.46   65.26   3.20   0.863   2.706    7.92    2.70    
 58  14.19    0.0   62.02   68.44   65.23   3.21   0.863   2.705    7.91    2.70    
 59  14.44    0.0   62.08   68.41   65.25   3.16   0.863   2.705    7.92    2.70    
 60  14.70    0.0   62.06   68.45   65.26   3.19   0.863   2.705    7.91    2.70    
