 No.  TimeTiltAng Theta(L) Theta(R)  Mean    Dev.  Height  Width   Area   Volume  Messages
  1  0.000    0.0   35.33   36.40   35.86   0.53   0.516   3.343    9.32    2.19    
  2  0.271    0.0   35.00   36.36   35.68   0.68   0.515   3.345    9.34    2.19    
  3  0.447    0.0   35.32   36.31   35.82   0.50   0.516   3.344    9.31    2.19    
  4  0.696    0.0   35.32   36.38   35.85   0.53   0.516   3.343    9.32    2.20    
  5  0.946    0.0   35.08   36.44   35.76   0.68   0.515   3.344    9.35    2.19    
  6  1.195    0.0   35.33   36.40   35.86   0.53   0.515   3.343    9.32    2.20    
  7  1.447    0.0   35.26   36.41   35.84   0.57   0.515   3.343    9.31    2.19    
  8  1.697    0.0   34.93   36.36   35.65   0.72   0.515   3.346    9.35    2.19    
  9  1.944    0.0   35.01   36.28   35.64   0.64   0.515   3.345    9.35    2.19    
 10  2.197    0.0   35.05   36.37   35.71   0.66   0.515   3.344    9.35    2.19    
 11  2.445    0.0   35.03   36.38   35.70   0.67   0.515   3.344    9.34    2.19    
 12  2.695    0.0   35.19   36.35   35.77   0.58   0.515   3.343    9.31    2.19    
 13  2.945    0.0   35.22   36.27   35.74   0.52   0.514   3.343    9.31    2.19    
 14  3.193    0.0   35.24   36.24   35.74   0.50   0.514   3.343    9.32    2.19    
 15  3.445    0.0   35.26   36.30   35.78   0.52   0.515   3.343    9.31    2.19    
 16  3.693    0.0   35.00   36.33   35.66   0.66   0.514   3.345    9.34    2.18    
 17  3.943    0.0   35.20   36.25   35.72   0.53   0.515   3.343    9.31    2.19    
 18  4.210    0.0   35.06   36.27   35.67   0.60   0.514   3.344    9.34    2.18    
 19  4.460    0.0   35.20   36.29   35.74   0.55   0.514   3.343    9.31    2.19    
 20  4.710    0.0   34.98   36.29   35.64   0.66   0.514   3.344    9.34    2.18    
 21  4.941    0.0   35.26   36.22   35.74   0.48   0.514   3.343    9.31    2.19    
 22  5.209    0.0   34.97   36.26   35.62   0.65   0.514   3.344    9.34    2.18    
 23  5.458    0.0   35.28   36.24   35.76   0.48   0.514   3.342    9.31    2.19    
 24  5.708    0.0   35.19   36.26   35.73   0.54   0.513   3.343    9.31    2.18    
 25  5.941    0.0   35.27   36.18   35.73   0.46   0.514   3.342    9.31    2.18    
 26  6.208    0.0   34.96   36.27   35.62   0.65   0.514   3.344    9.34    2.18    
 27  6.458    0.0   34.93   36.13   35.53   0.60   0.513   3.345    9.34    2.18    
 28  6.707    0.0   35.11   36.23   35.67   0.56   0.513   3.343    9.31    2.18    
 29  6.959    0.0   34.93   36.19   35.56   0.63   0.513   3.344    9.34    2.18    
 30  7.208    0.0   35.02   36.13   35.58   0.55   0.513   3.344    9.34    2.18    
 31  7.458    0.0   35.13   36.20   35.67   0.54   0.513   3.343    9.31    2.19    
 32  7.708    0.0   34.93   36.19   35.56   0.63   0.513   3.344    9.34    2.18    
 33  7.957    0.0   35.12   36.18   35.65   0.53   0.513   3.343    9.31    2.18    
 34  8.205    0.0   35.01   36.16   35.58   0.57   0.513   3.344    9.34    2.18    
 35  8.456    0.0   35.12   36.12   35.62   0.50   0.513   3.343    9.31    2.18    
 36  8.705    0.0   34.96   36.14   35.55   0.59   0.513   3.344    9.34    2.18    
 37  8.956    0.0   35.20   36.13   35.67   0.47   0.513   3.342    9.31    2.18    
 38  9.204    0.0   35.14   36.12   35.63   0.49   0.513   3.343    9.31    2.18    
 39  9.455    0.0   35.11   36.12   35.61   0.51   0.513   3.343    9.31    2.18    
 40  9.703    0.0   34.93   36.17   35.55   0.62   0.512   3.344    9.34    2.17    
 41  9.954    0.0   35.09   36.20   35.65   0.56   0.512   3.343    9.31    2.18    
 42  10.20    0.0   34.95   36.17   35.56   0.61   0.512   3.343    9.34    2.18    
 43  10.45    0.0   34.90   36.06   35.48   0.58   0.512   3.345    9.34    2.18    
 44  10.70    0.0   34.85   36.06   35.46   0.60   0.512   3.345    9.34    2.17    
 45  10.95    0.0   35.06   36.10   35.58   0.52   0.512   3.343    9.30    2.18    
 46  11.19    0.0   35.14   36.05   35.59   0.45   0.512   3.343    9.30    2.18    
 47  11.45    0.0   34.93   36.09   35.51   0.58   0.512   3.344    9.34    2.18    
 48  11.69    0.0   34.85   36.08   35.47   0.62   0.512   3.344    9.34    2.17    
 49  11.95    0.0   35.18   36.10   35.64   0.46   0.512   3.342    9.31    2.18    
 50  12.20    0.0   35.06   36.07   35.57   0.50   0.511   3.343    9.31    2.18    
 51  12.45    0.0   34.99   36.12   35.55   0.57   0.511   3.343    9.30    2.18    
 52  12.69    0.0   34.82   36.03   35.42   0.60   0.511   3.344    9.33    2.17    
 53  12.95    0.0   35.01   36.15   35.58   0.57   0.511   3.341    9.30    2.18    
 54  13.20    0.0   34.96   36.10   35.53   0.57   0.511   3.342    9.30    2.17    
 55  13.45    0.0   35.11   36.09   35.60   0.49   0.511   3.342    9.30    2.17    
 56  13.70    0.0   34.84   36.04   35.44   0.60   0.511   3.344    9.33    2.17    
 57  13.95    0.0   34.82   36.04   35.43   0.61   0.511   3.343    9.33    2.17    
 58  14.19    0.0   34.72   36.07   35.40   0.68   0.511   3.344    9.33    2.17    
 59  14.44    0.0   34.99   36.05   35.52   0.53   0.510   3.342    9.30    2.17    
 60  14.69    0.0   35.01   36.06   35.53   0.53   0.511   3.342    9.30    2.17    
